"group1","group2","group3","group4","group5","group6","temp","vtkValidPointMask","arc_length","Points:0","Points:1","Points:2"
3.0312e+14,1.1934e+15,2.9299e+15,1.9844e+15,1.2295e+15,2.79e+14,1020.1,1,0,0,94,0
3.031e+14,1.1933e+15,2.9297e+15,1.9842e+15,1.2294e+15,2.7898e+14,1020.1,1,0.16275,0.16275,94,0
3.0307e+14,1.1932e+15,2.9295e+15,1.984e+15,1.2293e+15,2.7896e+14,1020.1,1,0.3255,0.3255,94,0
3.0305e+14,1.1931e+15,2.9292e+15,1.9839e+15,1.2292e+15,2.7893e+14,1020.1,1,0.48825,0.48825,94,0
3.0302e+14,1.193e+15,2.929e+15,1.9837e+15,1.2291e+15,2.7891e+14,1020.1,1,0.651,0.651,94,0
3.03e+14,1.1929e+15,2.9287e+15,1.9835e+15,1.229e+15,2.7889e+14,1020.1,1,0.81375,0.81375,94,0
3.0297e+14,1.1928e+15,2.9285e+15,1.9834e+15,1.2289e+15,2.7886e+14,1020.1,1,0.9765,0.9765,94,0
3.0294e+14,1.1927e+15,2.9282e+15,1.9832e+15,1.2288e+15,2.7884e+14,1020.1,1,1.1393,1.1393,94,0
3.0292e+14,1.1926e+15,2.928e+15,1.983e+15,1.2287e+15,2.7882e+14,1020.1,1,1.302,1.302,94,0
3.0289e+14,1.1925e+15,2.9277e+15,1.9829e+15,1.2286e+15,2.7879e+14,1020.1,1,1.4648,1.4648,94,0
3.0287e+14,1.1924e+15,2.9275e+15,1.9827e+15,1.2285e+15,2.7877e+14,1020.1,1,1.6275,1.6275,94,0
3.0284e+14,1.1923e+15,2.9272e+15,1.9825e+15,1.2284e+15,2.7875e+14,1020,1,1.7902,1.7902,94,0
3.0282e+14,1.1922e+15,2.927e+15,1.9824e+15,1.2283e+15,2.7873e+14,1020,1,1.953,1.953,94,0
3.0279e+14,1.1921e+15,2.9267e+15,1.9822e+15,1.2282e+15,2.787e+14,1020,1,2.1158,2.1158,94,0
3.0277e+14,1.192e+15,2.9265e+15,1.982e+15,1.2281e+15,2.7868e+14,1020,1,2.2785,2.2785,94,0
3.0274e+14,1.1919e+15,2.9262e+15,1.9819e+15,1.2279e+15,2.7866e+14,1020,1,2.4413,2.4413,94,0
3.0271e+14,1.1918e+15,2.926e+15,1.9817e+15,1.2278e+15,2.7863e+14,1020,1,2.604,2.604,94,0
3.0269e+14,1.1917e+15,2.9257e+15,1.9815e+15,1.2277e+15,2.7861e+14,1020,1,2.7668,2.7668,94,0
3.0266e+14,1.1916e+15,2.9255e+15,1.9814e+15,1.2276e+15,2.7859e+14,1020,1,2.9295,2.9295,94,0
3.0264e+14,1.1915e+15,2.9253e+15,1.9812e+15,1.2275e+15,2.7856e+14,1020,1,3.0923,3.0923,94,0
3.0261e+14,1.1914e+15,2.925e+15,1.981e+15,1.2274e+15,2.7854e+14,1020,1,3.255,3.255,94,0
3.0259e+14,1.1913e+15,2.9248e+15,1.9808e+15,1.2273e+15,2.7852e+14,1020,1,3.4177,3.4177,94,0
3.0256e+14,1.1912e+15,2.9245e+15,1.9807e+15,1.2272e+15,2.7849e+14,1020,1,3.5805,3.5805,94,0
3.0254e+14,1.1911e+15,2.9243e+15,1.9805e+15,1.2271e+15,2.7847e+14,1019.9,1,3.7432,3.7432,94,0
3.0251e+14,1.191e+15,2.924e+15,1.9803e+15,1.227e+15,2.7845e+14,1019.9,1,3.906,3.906,94,0
3.0248e+14,1.1909e+15,2.9238e+15,1.9802e+15,1.2269e+15,2.7842e+14,1019.9,1,4.0687,4.0687,94,0
3.0246e+14,1.1908e+15,2.9235e+15,1.98e+15,1.2268e+15,2.784e+14,1019.9,1,4.2315,4.2315,94,0
3.0243e+14,1.1907e+15,2.9233e+15,1.9798e+15,1.2267e+15,2.7838e+14,1019.9,1,4.3942,4.3942,94,0
3.024e+14,1.1905e+15,2.9229e+15,1.9796e+15,1.2266e+15,2.7834e+14,1019.9,1,4.557,4.557,94,0
3.0234e+14,1.1903e+15,2.9224e+15,1.9792e+15,1.2263e+15,2.7829e+14,1019.9,1,4.7197,4.7197,94,0
3.0228e+14,1.1901e+15,2.9218e+15,1.9788e+15,1.2261e+15,2.7824e+14,1019.9,1,4.8825,4.8825,94,0
3.0222e+14,1.1898e+15,2.9212e+15,1.9784e+15,1.2258e+15,2.7818e+14,1019.8,1,5.0452,5.0452,94,0
3.0216e+14,1.1896e+15,2.9206e+15,1.9781e+15,1.2256e+15,2.7813e+14,1019.8,1,5.208,5.208,94,0
3.021e+14,1.1893e+15,2.9201e+15,1.9777e+15,1.2254e+15,2.7807e+14,1019.8,1,5.3707,5.3707,94,0
3.0204e+14,1.1891e+15,2.9195e+15,1.9773e+15,1.2251e+15,2.7802e+14,1019.8,1,5.5335,5.5335,94,0
3.0198e+14,1.1889e+15,2.9189e+15,1.9769e+15,1.2249e+15,2.7797e+14,1019.8,1,5.6962,5.6962,94,0
3.0192e+14,1.1886e+15,2.9183e+15,1.9765e+15,1.2246e+15,2.7791e+14,1019.8,1,5.859,5.859,94,0
3.0186e+14,1.1884e+15,2.9178e+15,1.9761e+15,1.2244e+15,2.7786e+14,1019.7,1,6.0217,6.0217,94,0
3.018e+14,1.1882e+15,2.9172e+15,1.9757e+15,1.2241e+15,2.778e+14,1019.7,1,6.1845,6.1845,94,0
3.0174e+14,1.1879e+15,2.9166e+15,1.9753e+15,1.2239e+15,2.7775e+14,1019.7,1,6.3472,6.3472,94,0
3.0168e+14,1.1877e+15,2.916e+15,1.9749e+15,1.2237e+15,2.777e+14,1019.7,1,6.51,6.51,94,0
3.0163e+14,1.1875e+15,2.9155e+15,1.9745e+15,1.2234e+15,2.7764e+14,1019.7,1,6.6727,6.6727,94,0
3.0157e+14,1.1872e+15,2.9149e+15,1.9741e+15,1.2232e+15,2.7759e+14,1019.6,1,6.8355,6.8355,94,0
3.0151e+14,1.187e+15,2.9143e+15,1.9738e+15,1.2229e+15,2.7753e+14,1019.6,1,6.9983,6.9983,94,0
3.0145e+14,1.1868e+15,2.9137e+15,1.9734e+15,1.2227e+15,2.7748e+14,1019.6,1,7.161,7.161,94,0
3.0139e+14,1.1865e+15,2.9131e+15,1.973e+15,1.2225e+15,2.7742e+14,1019.6,1,7.3238,7.3238,94,0
3.0133e+14,1.1863e+15,2.9126e+15,1.9726e+15,1.2222e+15,2.7737e+14,1019.6,1,7.4865,7.4865,94,0
3.0127e+14,1.1861e+15,2.912e+15,1.9722e+15,1.222e+15,2.7732e+14,1019.5,1,7.6493,7.6493,94,0
3.0121e+14,1.1858e+15,2.9114e+15,1.9718e+15,1.2217e+15,2.7726e+14,1019.5,1,7.812,7.812,94,0
3.0115e+14,1.1856e+15,2.9108e+15,1.9714e+15,1.2215e+15,2.7721e+14,1019.5,1,7.9748,7.9748,94,0
3.0109e+14,1.1854e+15,2.9103e+15,1.971e+15,1.2212e+15,2.7715e+14,1019.5,1,8.1375,8.1375,94,0
3.0103e+14,1.1851e+15,2.9097e+15,1.9706e+15,1.221e+15,2.771e+14,1019.5,1,8.3003,8.3003,94,0
3.0097e+14,1.1849e+15,2.9091e+15,1.9702e+15,1.2208e+15,2.7705e+14,1019.4,1,8.463,8.463,94,0
3.0091e+14,1.1847e+15,2.9085e+15,1.9699e+15,1.2205e+15,2.7699e+14,1019.4,1,8.6257,8.6257,94,0
3.0085e+14,1.1844e+15,2.908e+15,1.9695e+15,1.2203e+15,2.7694e+14,1019.4,1,8.7885,8.7885,94,0
3.0079e+14,1.1842e+15,2.9074e+15,1.9691e+15,1.22e+15,2.7688e+14,1019.4,1,8.9513,8.9513,94,0
3.0071e+14,1.1839e+15,2.9066e+15,1.9685e+15,1.2197e+15,2.7681e+14,1019.4,1,9.114,9.114,94,0
3.0062e+14,1.1835e+15,2.9057e+15,1.9679e+15,1.2193e+15,2.7672e+14,1019.3,1,9.2767,9.2767,94,0
3.0052e+14,1.1831e+15,2.9047e+15,1.9673e+15,1.2189e+15,2.7663e+14,1019.3,1,9.4395,9.4395,94,0
3.0042e+14,1.1827e+15,2.9038e+15,1.9666e+15,1.2185e+15,2.7655e+14,1019.3,1,9.6023,9.6023,94,0
3.0033e+14,1.1824e+15,2.9029e+15,1.966e+15,1.2181e+15,2.7646e+14,1019.2,1,9.765,9.765,94,0
3.0023e+14,1.182e+15,2.9019e+15,1.9654e+15,1.2178e+15,2.7637e+14,1019.2,1,9.9277,9.9277,94,0
3.0013e+14,1.1816e+15,2.901e+15,1.9647e+15,1.2174e+15,2.7628e+14,1019.2,1,10.09,10.09,94,0
3.0004e+14,1.1812e+15,2.9001e+15,1.9641e+15,1.217e+15,2.7619e+14,1019.1,1,10.253,10.253,94,0
2.9994e+14,1.1808e+15,2.8991e+15,1.9635e+15,1.2166e+15,2.7611e+14,1019.1,1,10.416,10.416,94,0
2.9984e+14,1.1805e+15,2.8982e+15,1.9628e+15,1.2162e+15,2.7602e+14,1019.1,1,10.579,10.579,94,0
2.9975e+14,1.1801e+15,2.8973e+15,1.9622e+15,1.2158e+15,2.7593e+14,1019,1,10.741,10.741,94,0
2.9965e+14,1.1797e+15,2.8963e+15,1.9616e+15,1.2154e+15,2.7584e+14,1019,1,10.904,10.904,94,0
2.9955e+14,1.1793e+15,2.8954e+15,1.9609e+15,1.215e+15,2.7576e+14,1019,1,11.067,11.067,94,0
2.9946e+14,1.1789e+15,2.8945e+15,1.9603e+15,1.2146e+15,2.7567e+14,1019,1,11.23,11.23,94,0
2.9936e+14,1.1786e+15,2.8935e+15,1.9597e+15,1.2142e+15,2.7558e+14,1018.9,1,11.392,11.392,94,0
2.9926e+14,1.1782e+15,2.8926e+15,1.959e+15,1.2138e+15,2.7549e+14,1018.9,1,11.555,11.555,94,0
2.9917e+14,1.1778e+15,2.8917e+15,1.9584e+15,1.2134e+15,2.754e+14,1018.9,1,11.718,11.718,94,0
2.9907e+14,1.1774e+15,2.8907e+15,1.9578e+15,1.213e+15,2.7532e+14,1018.8,1,11.881,11.881,94,0
2.9897e+14,1.177e+15,2.8898e+15,1.9571e+15,1.2127e+15,2.7523e+14,1018.8,1,12.043,12.043,94,0
2.9888e+14,1.1767e+15,2.8889e+15,1.9565e+15,1.2123e+15,2.7514e+14,1018.8,1,12.206,12.206,94,0
2.9878e+14,1.1763e+15,2.8879e+15,1.9559e+15,1.2119e+15,2.7505e+14,1018.7,1,12.369,12.369,94,0
2.9869e+14,1.1759e+15,2.887e+15,1.9552e+15,1.2115e+15,2.7496e+14,1018.7,1,12.532,12.532,94,0
2.9859e+14,1.1755e+15,2.886e+15,1.9546e+15,1.2111e+15,2.7488e+14,1018.7,1,12.694,12.694,94,0
2.9849e+14,1.1751e+15,2.8851e+15,1.954e+15,1.2107e+15,2.7479e+14,1018.6,1,12.857,12.857,94,0
2.984e+14,1.1748e+15,2.8842e+15,1.9533e+15,1.2103e+15,2.747e+14,1018.6,1,13.02,13.02,94,0
2.983e+14,1.1744e+15,2.8832e+15,1.9527e+15,1.2099e+15,2.7461e+14,1018.6,1,13.183,13.183,94,0
2.982e+14,1.174e+15,2.8823e+15,1.9521e+15,1.2095e+15,2.7453e+14,1018.5,1,13.345,13.345,94,0
2.9811e+14,1.1736e+15,2.8814e+15,1.9514e+15,1.2091e+15,2.7444e+14,1018.5,1,13.508,13.508,94,0
2.9798e+14,1.1731e+15,2.8801e+15,1.9506e+15,1.2086e+15,2.7432e+14,1018.5,1,13.671,13.671,94,0
2.9784e+14,1.1726e+15,2.8788e+15,1.9497e+15,1.2081e+15,2.742e+14,1018.4,1,13.834,13.834,94,0
2.9771e+14,1.1721e+15,2.8775e+15,1.9488e+15,1.2075e+15,2.7408e+14,1018.4,1,13.997,13.997,94,0
2.9758e+14,1.1715e+15,2.8762e+15,1.948e+15,1.207e+15,2.7396e+14,1018.3,1,14.159,14.159,94,0
2.9744e+14,1.171e+15,2.875e+15,1.9471e+15,1.2064e+15,2.7383e+14,1018.3,1,14.322,14.322,94,0
2.9731e+14,1.1705e+15,2.8737e+15,1.9462e+15,1.2059e+15,2.7371e+14,1018.3,1,14.485,14.485,94,0
2.9718e+14,1.17e+15,2.8724e+15,1.9453e+15,1.2053e+15,2.7359e+14,1018.2,1,14.648,14.648,94,0
2.9704e+14,1.1694e+15,2.8711e+15,1.9445e+15,1.2048e+15,2.7347e+14,1018.2,1,14.81,14.81,94,0
2.9691e+14,1.1689e+15,2.8698e+15,1.9436e+15,1.2043e+15,2.7335e+14,1018.1,1,14.973,14.973,94,0
2.9677e+14,1.1684e+15,2.8685e+15,1.9427e+15,1.2037e+15,2.7323e+14,1018.1,1,15.136,15.136,94,0
2.9664e+14,1.1679e+15,2.8672e+15,1.9418e+15,1.2032e+15,2.731e+14,1018,1,15.299,15.299,94,0
2.9651e+14,1.1673e+15,2.8659e+15,1.941e+15,1.2026e+15,2.7298e+14,1018,1,15.461,15.461,94,0
2.9637e+14,1.1668e+15,2.8646e+15,1.9401e+15,1.2021e+15,2.7286e+14,1018,1,15.624,15.624,94,0
2.9624e+14,1.1663e+15,2.8633e+15,1.9392e+15,1.2015e+15,2.7274e+14,1017.9,1,15.787,15.787,94,0
2.9611e+14,1.1658e+15,2.862e+15,1.9383e+15,1.201e+15,2.7262e+14,1017.9,1,15.95,15.95,94,0
2.9597e+14,1.1652e+15,2.8607e+15,1.9374e+15,1.2005e+15,2.725e+14,1017.8,1,16.112,16.112,94,0
2.9584e+14,1.1647e+15,2.8594e+15,1.9366e+15,1.1999e+15,2.7237e+14,1017.8,1,16.275,16.275,94,0
2.9571e+14,1.1642e+15,2.8581e+15,1.9357e+15,1.1994e+15,2.7225e+14,1017.7,1,16.438,16.438,94,0
2.9557e+14,1.1636e+15,2.8568e+15,1.9348e+15,1.1988e+15,2.7213e+14,1017.7,1,16.601,16.601,94,0
2.9544e+14,1.1631e+15,2.8555e+15,1.9339e+15,1.1983e+15,2.7201e+14,1017.7,1,16.763,16.763,94,0
2.953e+14,1.1626e+15,2.8543e+15,1.9331e+15,1.1977e+15,2.7189e+14,1017.6,1,16.926,16.926,94,0
2.9517e+14,1.1621e+15,2.853e+15,1.9322e+15,1.1972e+15,2.7176e+14,1017.6,1,17.089,17.089,94,0
2.9504e+14,1.1615e+15,2.8517e+15,1.9313e+15,1.1967e+15,2.7164e+14,1017.5,1,17.251,17.251,94,0
2.949e+14,1.161e+15,2.8504e+15,1.9304e+15,1.1961e+15,2.7152e+14,1017.5,1,17.414,17.414,94,0
2.9477e+14,1.1605e+15,2.8491e+15,1.9296e+15,1.1956e+15,2.714e+14,1017.4,1,17.577,17.577,94,0
2.9464e+14,1.16e+15,2.8478e+15,1.9287e+15,1.195e+15,2.7128e+14,1017.4,1,17.74,17.74,94,0
2.945e+14,1.1594e+15,2.8465e+15,1.9278e+15,1.1945e+15,2.7116e+14,1017.4,1,17.903,17.903,94,0
2.9436e+14,1.1589e+15,2.8451e+15,1.9269e+15,1.1939e+15,2.7103e+14,1017.3,1,18.065,18.065,94,0
2.9419e+14,1.1582e+15,2.8435e+15,1.9258e+15,1.1932e+15,2.7087e+14,1017.3,1,18.228,18.228,94,0
2.9402e+14,1.1575e+15,2.8418e+15,1.9246e+15,1.1925e+15,2.7072e+14,1017.2,1,18.391,18.391,94,0
2.9385e+14,1.1569e+15,2.8402e+15,1.9235e+15,1.1918e+15,2.7056e+14,1017.1,1,18.553,18.553,94,0
2.9368e+14,1.1562e+15,2.8385e+15,1.9224e+15,1.1912e+15,2.7041e+14,1017.1,1,18.716,18.716,94,0
2.9351e+14,1.1555e+15,2.8369e+15,1.9213e+15,1.1905e+15,2.7025e+14,1017,1,18.879,18.879,94,0
2.9334e+14,1.1549e+15,2.8352e+15,1.9202e+15,1.1898e+15,2.701e+14,1017,1,19.042,19.042,94,0
2.9317e+14,1.1542e+15,2.8336e+15,1.9191e+15,1.1891e+15,2.6994e+14,1016.9,1,19.205,19.205,94,0
2.93e+14,1.1535e+15,2.8319e+15,1.9179e+15,1.1884e+15,2.6979e+14,1016.9,1,19.367,19.367,94,0
2.9283e+14,1.1529e+15,2.8303e+15,1.9168e+15,1.1877e+15,2.6963e+14,1016.8,1,19.53,19.53,94,0
2.9266e+14,1.1522e+15,2.8286e+15,1.9157e+15,1.187e+15,2.6948e+14,1016.8,1,19.693,19.693,94,0
2.9249e+14,1.1515e+15,2.827e+15,1.9146e+15,1.1863e+15,2.6932e+14,1016.7,1,19.855,19.855,94,0
2.9232e+14,1.1508e+15,2.8254e+15,1.9135e+15,1.1856e+15,2.6917e+14,1016.7,1,20.018,20.018,94,0
2.9215e+14,1.1502e+15,2.8237e+15,1.9124e+15,1.1849e+15,2.6901e+14,1016.6,1,20.181,20.181,94,0
2.9198e+14,1.1495e+15,2.8221e+15,1.9112e+15,1.1842e+15,2.6886e+14,1016.5,1,20.344,20.344,94,0
2.9181e+14,1.1488e+15,2.8204e+15,1.9101e+15,1.1835e+15,2.687e+14,1016.5,1,20.507,20.507,94,0
2.9164e+14,1.1482e+15,2.8188e+15,1.909e+15,1.1829e+15,2.6855e+14,1016.4,1,20.669,20.669,94,0
2.9147e+14,1.1475e+15,2.8171e+15,1.9079e+15,1.1822e+15,2.6839e+14,1016.4,1,20.832,20.832,94,0
2.913e+14,1.1468e+15,2.8155e+15,1.9068e+15,1.1815e+15,2.6824e+14,1016.3,1,20.995,20.995,94,0
2.9113e+14,1.1462e+15,2.8138e+15,1.9056e+15,1.1808e+15,2.6808e+14,1016.3,1,21.157,21.157,94,0
2.9096e+14,1.1455e+15,2.8122e+15,1.9045e+15,1.1801e+15,2.6793e+14,1016.2,1,21.32,21.32,94,0
2.9079e+14,1.1448e+15,2.8105e+15,1.9034e+15,1.1794e+15,2.6777e+14,1016.2,1,21.483,21.483,94,0
2.9062e+14,1.1441e+15,2.8089e+15,1.9023e+15,1.1787e+15,2.6762e+14,1016.1,1,21.646,21.646,94,0
2.9045e+14,1.1435e+15,2.8072e+15,1.9012e+15,1.178e+15,2.6746e+14,1016,1,21.809,21.809,94,0
2.9028e+14,1.1428e+15,2.8056e+15,1.9001e+15,1.1773e+15,2.6731e+14,1016,1,21.971,21.971,94,0
2.9011e+14,1.1421e+15,2.8039e+15,1.8989e+15,1.1766e+15,2.6715e+14,1015.9,1,22.134,22.134,94,0
2.8994e+14,1.1415e+15,2.8023e+15,1.8978e+15,1.1759e+15,2.67e+14,1015.9,1,22.297,22.297,94,0
2.8976e+14,1.1408e+15,2.8006e+15,1.8967e+15,1.1752e+15,2.6684e+14,1015.8,1,22.459,22.459,94,0
2.8958e+14,1.1401e+15,2.7988e+15,1.8955e+15,1.1745e+15,2.6667e+14,1015.8,1,22.622,22.622,94,0
2.8937e+14,1.1392e+15,2.7968e+15,1.8941e+15,1.1736e+15,2.6648e+14,1015.7,1,22.785,22.785,94,0
2.8917e+14,1.1384e+15,2.7948e+15,1.8928e+15,1.1728e+15,2.663e+14,1015.6,1,22.948,22.948,94,0
2.8896e+14,1.1376e+15,2.7928e+15,1.8914e+15,1.172e+15,2.6611e+14,1015.6,1,23.111,23.111,94,0
2.8875e+14,1.1368e+15,2.7908e+15,1.8901e+15,1.1711e+15,2.6592e+14,1015.5,1,23.273,23.273,94,0
2.8855e+14,1.136e+15,2.7888e+15,1.8887e+15,1.1703e+15,2.6573e+14,1015.4,1,23.436,23.436,94,0
2.8834e+14,1.1352e+15,2.7868e+15,1.8874e+15,1.1695e+15,2.6554e+14,1015.4,1,23.599,23.599,94,0
2.8813e+14,1.1344e+15,2.7848e+15,1.886e+15,1.1686e+15,2.6536e+14,1015.3,1,23.761,23.761,94,0
2.8793e+14,1.1336e+15,2.7828e+15,1.8847e+15,1.1678e+15,2.6517e+14,1015.2,1,23.924,23.924,94,0
2.8772e+14,1.1327e+15,2.7808e+15,1.8833e+15,1.1669e+15,2.6498e+14,1015.2,1,24.087,24.087,94,0
2.8752e+14,1.1319e+15,2.7788e+15,1.882e+15,1.1661e+15,2.6479e+14,1015.1,1,24.25,24.25,94,0
2.8731e+14,1.1311e+15,2.7768e+15,1.8806e+15,1.1653e+15,2.646e+14,1015,1,24.413,24.413,94,0
2.871e+14,1.1303e+15,2.7748e+15,1.8792e+15,1.1644e+15,2.6442e+14,1015,1,24.575,24.575,94,0
2.869e+14,1.1295e+15,2.7728e+15,1.8779e+15,1.1636e+15,2.6423e+14,1014.9,1,24.738,24.738,94,0
2.8669e+14,1.1287e+15,2.7708e+15,1.8765e+15,1.1628e+15,2.6404e+14,1014.8,1,24.901,24.901,94,0
2.8648e+14,1.1279e+15,2.7689e+15,1.8752e+15,1.1619e+15,2.6385e+14,1014.8,1,25.063,25.063,94,0
2.8628e+14,1.1271e+15,2.7669e+15,1.8738e+15,1.1611e+15,2.6366e+14,1014.7,1,25.226,25.226,94,0
2.8607e+14,1.1262e+15,2.7649e+15,1.8725e+15,1.1602e+15,2.6348e+14,1014.6,1,25.389,25.389,94,0
2.8587e+14,1.1254e+15,2.7629e+15,1.8711e+15,1.1594e+15,2.6329e+14,1014.6,1,25.552,25.552,94,0
2.8566e+14,1.1246e+15,2.7609e+15,1.8698e+15,1.1586e+15,2.631e+14,1014.5,1,25.715,25.715,94,0
2.8545e+14,1.1238e+15,2.7589e+15,1.8684e+15,1.1577e+15,2.6291e+14,1014.4,1,25.877,25.877,94,0
2.8525e+14,1.123e+15,2.7569e+15,1.8671e+15,1.1569e+15,2.6272e+14,1014.4,1,26.04,26.04,94,0
2.8504e+14,1.1222e+15,2.7549e+15,1.8657e+15,1.156e+15,2.6254e+14,1014.3,1,26.203,26.203,94,0
2.8483e+14,1.1214e+15,2.7529e+15,1.8644e+15,1.1552e+15,2.6235e+14,1014.2,1,26.365,26.365,94,0
2.8463e+14,1.1206e+15,2.7509e+15,1.863e+15,1.1544e+15,2.6216e+14,1014.2,1,26.528,26.528,94,0
2.8442e+14,1.1198e+15,2.7489e+15,1.8616e+15,1.1535e+15,2.6197e+14,1014.1,1,26.691,26.691,94,0
2.8421e+14,1.1189e+15,2.7469e+15,1.8603e+15,1.1527e+15,2.6178e+14,1014,1,26.854,26.854,94,0
2.8401e+14,1.1181e+15,2.7449e+15,1.8589e+15,1.1519e+15,2.616e+14,1014,1,27.017,27.017,94,0
2.8378e+14,1.1172e+15,2.7426e+15,1.8574e+15,1.1509e+15,2.6138e+14,1013.9,1,27.179,27.179,94,0
2.8354e+14,1.1163e+15,2.7403e+15,1.8558e+15,1.1499e+15,2.6116e+14,1013.8,1,27.342,27.342,94,0
2.8329e+14,1.1153e+15,2.738e+15,1.8543e+15,1.149e+15,2.6094e+14,1013.7,1,27.505,27.505,94,0
2.8305e+14,1.1144e+15,2.7356e+15,1.8527e+15,1.148e+15,2.6072e+14,1013.7,1,27.667,27.667,94,0
2.8281e+14,1.1134e+15,2.7333e+15,1.8511e+15,1.147e+15,2.605e+14,1013.6,1,27.83,27.83,94,0
2.8257e+14,1.1125e+15,2.731e+15,1.8495e+15,1.146e+15,2.6028e+14,1013.5,1,27.993,27.993,94,0
2.8233e+14,1.1115e+15,2.7286e+15,1.8479e+15,1.145e+15,2.6006e+14,1013.4,1,28.156,28.156,94,0
2.8209e+14,1.1106e+15,2.7263e+15,1.8463e+15,1.1441e+15,2.5984e+14,1013.4,1,28.319,28.319,94,0
2.8185e+14,1.1096e+15,2.7239e+15,1.8447e+15,1.1431e+15,2.5962e+14,1013.3,1,28.481,28.481,94,0
2.816e+14,1.1087e+15,2.7216e+15,1.8432e+15,1.1421e+15,2.594e+14,1013.2,1,28.644,28.644,94,0
2.8136e+14,1.1077e+15,2.7193e+15,1.8416e+15,1.1411e+15,2.5918e+14,1013.1,1,28.807,28.807,94,0
2.8112e+14,1.1068e+15,2.7169e+15,1.84e+15,1.1401e+15,2.5896e+14,1013,1,28.969,28.969,94,0
2.8088e+14,1.1058e+15,2.7146e+15,1.8384e+15,1.1391e+15,2.5874e+14,1013,1,29.132,29.132,94,0
2.8064e+14,1.1049e+15,2.7123e+15,1.8368e+15,1.1382e+15,2.5852e+14,1012.9,1,29.295,29.295,94,0
2.804e+14,1.1039e+15,2.7099e+15,1.8352e+15,1.1372e+15,2.583e+14,1012.8,1,29.458,29.458,94,0
2.8016e+14,1.103e+15,2.7076e+15,1.8337e+15,1.1362e+15,2.5808e+14,1012.7,1,29.621,29.621,94,0
2.7991e+14,1.102e+15,2.7052e+15,1.8321e+15,1.1352e+15,2.5786e+14,1012.7,1,29.783,29.783,94,0
2.7967e+14,1.1011e+15,2.7029e+15,1.8305e+15,1.1342e+15,2.5764e+14,1012.6,1,29.946,29.946,94,0
2.7943e+14,1.1001e+15,2.7006e+15,1.8289e+15,1.1333e+15,2.5742e+14,1012.5,1,30.109,30.109,94,0
2.7919e+14,1.0992e+15,2.6982e+15,1.8273e+15,1.1323e+15,2.572e+14,1012.4,1,30.271,30.271,94,0
2.7895e+14,1.0982e+15,2.6959e+15,1.8257e+15,1.1313e+15,2.5698e+14,1012.3,1,30.434,30.434,94,0
2.7871e+14,1.0973e+15,2.6936e+15,1.8242e+15,1.1303e+15,2.5676e+14,1012.3,1,30.597,30.597,94,0
2.7847e+14,1.0963e+15,2.6912e+15,1.8226e+15,1.1293e+15,2.5654e+14,1012.2,1,30.76,30.76,94,0
2.7822e+14,1.0954e+15,2.6889e+15,1.821e+15,1.1284e+15,2.5632e+14,1012.1,1,30.923,30.923,94,0
2.7798e+14,1.0944e+15,2.6865e+15,1.8194e+15,1.1274e+15,2.561e+14,1012,1,31.085,31.085,94,0
2.7774e+14,1.0935e+15,2.6842e+15,1.8178e+15,1.1264e+15,2.5588e+14,1012,1,31.248,31.248,94,0
2.775e+14,1.0925e+15,2.6819e+15,1.8162e+15,1.1254e+15,2.5566e+14,1011.9,1,31.411,31.411,94,0
2.7726e+14,1.0916e+15,2.6795e+15,1.8147e+15,1.1244e+15,2.5544e+14,1011.8,1,31.573,31.573,94,0
2.7698e+14,1.0905e+15,2.6769e+15,1.8128e+15,1.1233e+15,2.5519e+14,1011.7,1,31.736,31.736,94,0
2.7671e+14,1.0894e+15,2.6742e+15,1.811e+15,1.1222e+15,2.5494e+14,1011.6,1,31.899,31.899,94,0
2.7643e+14,1.0883e+15,2.6715e+15,1.8092e+15,1.1211e+15,2.5469e+14,1011.5,1,32.062,32.062,94,0
2.7616e+14,1.0872e+15,2.6689e+15,1.8074e+15,1.12e+15,2.5444e+14,1011.4,1,32.224,32.224,94,0
2.7588e+14,1.0861e+15,2.6662e+15,1.8056e+15,1.1188e+15,2.5419e+14,1011.4,1,32.387,32.387,94,0
2.7561e+14,1.085e+15,2.6635e+15,1.8038e+15,1.1177e+15,2.5393e+14,1011.3,1,32.55,32.55,94,0
2.7533e+14,1.084e+15,2.6609e+15,1.802e+15,1.1166e+15,2.5368e+14,1011.2,1,32.713,32.713,94,0
2.7506e+14,1.0829e+15,2.6582e+15,1.8002e+15,1.1155e+15,2.5343e+14,1011.1,1,32.875,32.875,94,0
2.7478e+14,1.0818e+15,2.6555e+15,1.7984e+15,1.1144e+15,2.5318e+14,1011,1,33.038,33.038,94,0
2.745e+14,1.0807e+15,2.6529e+15,1.7966e+15,1.1133e+15,2.5293e+14,1010.9,1,33.201,33.201,94,0
2.7423e+14,1.0796e+15,2.6502e+15,1.7948e+15,1.1121e+15,2.5268e+14,1010.8,1,33.364,33.364,94,0
2.7395e+14,1.0785e+15,2.6475e+15,1.793e+15,1.111e+15,2.5243e+14,1010.7,1,33.527,33.527,94,0
2.7368e+14,1.0775e+15,2.6449e+15,1.7912e+15,1.1099e+15,2.5218e+14,1010.7,1,33.689,33.689,94,0
2.734e+14,1.0764e+15,2.6422e+15,1.7894e+15,1.1088e+15,2.5192e+14,1010.6,1,33.852,33.852,94,0
2.7313e+14,1.0753e+15,2.6395e+15,1.7876e+15,1.1077e+15,2.5167e+14,1010.5,1,34.015,34.015,94,0
2.7285e+14,1.0742e+15,2.6369e+15,1.7858e+15,1.1065e+15,2.5142e+14,1010.4,1,34.178,34.178,94,0
2.7258e+14,1.0731e+15,2.6342e+15,1.7839e+15,1.1054e+15,2.5117e+14,1010.3,1,34.34,34.34,94,0
2.723e+14,1.072e+15,2.6315e+15,1.7821e+15,1.1043e+15,2.5092e+14,1010.2,1,34.503,34.503,94,0
2.7203e+14,1.071e+15,2.6289e+15,1.7803e+15,1.1032e+15,2.5067e+14,1010.1,1,34.666,34.666,94,0
